-66
-68
-82
-87
-88
-89
-98
-100
-66
-68
-74
-80
-87
-89
-90
-92
-93
-97
-98
-67
-81
-82
-89
-92
-93
-96
-67
-80
-81
-90
-92
-94
-96
-92
-95
-225
-226
-233
-66
-67
-68
-69
-71
-73
-75
-78
-85
-224
-225
-227
-233
-234
-235
-236
-237
-239
-242
-243
-247
-248
-280
-284
-66
-67
-69
-70
-72
-73
-75
-76
-78
-81
-85
-86
-90
-93
-94
-95
-96
-67
-68
-69
-70
-71
-74
-76
-77
-78
-81
-82
-85
-87
-88
-89
-91
-92
-94
-97
-98
-225
-277
-287
-66
-77
-79
-80
-86
-88
-89
-90
-92
-94
-95
-96
-98
-65
-67
-81
-97
-98
-100
-289
-67
-81
-98
-99
-100
-289
-66
-68
-80
-82
-98
-99
-67
-68
-69
-70
-78
-80
-81
-98
-100
-69
-77
-79
-98
-99
-224
-225
-69
-70
-72
-74
-75
-76
-77
-84
-85
-86
-88
-89
-90
-91
-93
-100
-225
-71
-72
-73
-75
-86
-87
-88
-89
-92
-93
-94
-95
-98
-99
-228
-230
-231
-250
-268
-269
-70
-73
-74
-76
-77
-84
-85
-87
-88
-90
-93
-94
-96
-97
-227
-229
-230
-232
-233
-234
-235
-236
-237
-238
-239
-240
-241
-242
-245
-246
-247
-248
-288
-289
-86
-87
-88
-89
-90
-93
-94
-95
-96
-243
-245
-246
-247
-248
-249
-250
-266
-288
-289
-68
-250
-265
-289
-68
-70
-72
-74
-76
-77
-79
-84
-85
-86
-87
-89
-90
-91
-94
-95
-96
-249
-263
-264
-266
-267
-69
-70
-73
-78
-79
-85
-86
-88
-89
-90
-91
-92
-93
-94
-98
-100
-263
-265
-266
-267
-269
-271
-273
-274
-275
-276
-278
-279
-283
-285
-66
-68
-69
-71
-73
-74
-76
-77
-78
-79
-80
-81
-85
-86
-87
-89
-90
-92
-94
-96
-97
-99
-281
-282
-283
-287
-288
-65
-66
-75
-76
-79
-80
-81
-95
-97
-99
-289
-66
-67
-73
-75
-77
-79
-81
-98
-99
-100
-289
-65
-66
-67
-74
-80
-81
-100
-65
-67
-70
-71
-73
-79
-80
-81
-98
-99
-100
-289
-65
-67
-70
-71
-73
-99
-67
-69
-71
-72
-74
-76
-77
-80
-81
-98
-100
-68
-69
-72
-73
-75
-77
-78
-79
-80
-81
-98
-99
-100
-68
-70
-71
-73
-75
-78
-79
-99
-100
-69
-70
-71
-73
-74
-75
-76
-77
-100
-99
-86
-67
-68
-79
-84
-85
-68
-79
-81
-84
-85
-86
-67
-69
-71
-72
-73
-75
-76
-77
-79
-80
-81
-87
-65
-66
-68
-70
-73
-74
-77
-78
-81
-85
-87
-88
-89
-91
-92
-93
-95
-97
-98
-65
-67
-68
-69
-71
-72
-74
-75
-76
-79
-84
-85
-87
-91
-93
-94
-95
-96
-97
-98
-100
-72
-73
-75
-76
-78
-79
-80
-84
-86
-89
-90
-91
-95
-96
-98
-100
-255
-81
-85
-87
-88
-92
-93
-94
-97
-98
-99
-254
-255
-80
-81
-84
-85
-254
-84
-86
-255
-85
-86
-254
-255
-84
-85
-254
-255
-255
-255
-255
-255
-255
-255
-253
-254
-254
-253
-254
-254
-253
-254
-254
-253
-255
-253
-254
-255
-254
-254
-253
-253
-254
-253
-254
-253
-254
-253
-254
-253
-254
-253
-254
-253
-254
-253
-254
-253
-254
-253
-254
-253
-254
-253
-254
-253
-254
-253
-254
-253
-254
-253
-254
-253
-254
-254
-254
-253
-254
-253
-254
-254
-253
-254
-253
-254
-253
-254
-253
-254
-253
-254
-253
-254
-253
-254
-253
-254
-253
-254
-253
-254
-253
-254
-253
-254
-253
-254
-253
-254
-253
-254
-253
-254
-253
-254
-253
-254
-253
-254
-253
-254
-253
-254
-253
-254
-253
-254
-253
-254
-253
-254
-253
-254
-253
-254
-253
-254
-253
-254
-253
-254
-253
-254
-253
-254
-253
-254
-253
-254
-253
-254
-253
-254
-253
-254
-253
-254
-253
-254
-253
-254
-253
-254
-253
-254
-253
-254
-253
-254
-253
-254
-253
-254
-253
-254
-253
-254
-253
-254
-253
-254
-253
-254
-253
-254
-253
-254
-253
-254
-253
-254
-253
-254
-253
-254
-253
-254
-253
-254
-253
-254
-253
-254
-253
-254
-253
-254
-253
-254
-253
-254
-253
-254
-253
-254
-253
-254
-253
-254
-253
-254
-253
-254
-253
-254
-253
-253
-253
-254
-253
-254
-254
-253
-253
-254
-253
-253
-254
-253
-254
-253
-254
-253
-254
-253
-254
-253
-254
-253
-254
-253
-254
-253
-254
-253
-254
-253
-254
-253
-254
-253
-254
-253
-254
-253
-254
-253
-254
-253
-254
-253
-254
-253
-254
-253
-254
-253
-254
-253
-254
-253
-254
-253
-254
-254
-253
-253
-254
-253
-253
-254
-253
-254
-253
-254
-253
-254
-253
-254
-253
-254
-253
-254
-253
-254
-253
-254
-253
-254
-253
-254
-253
-254
-253
-254
-254
-253
-254
-254
-252
-253
-254
-252
-253
-253
-254
-253
-254
-253
-254
-253
-254
-253
-254
-253
-254
-253
-254
-253
-254
-253
-254
-253
-254
-253
-254
-253
-254
-253
-254
-253
-254
-253
-254
-253
-254
-253
-254
-253
-254
-253
-254
-253
-254
-253
-254
-253
-254
-253
-254
-253
-254
-253
-254
-253
-254
-253
-254
-253
-254
-253
-254
-253
-254
-253
-254
-253
-254
-253
-254
-253
-254
-253
-254
-253
-254
-253
-254
-253
-254
-253
-254
-253
-254
-254
-252
-253
-254
-252
-254
-252
-253
-252
-254
-253
-252
-254
-252
-253
-253
-252
-253
-254
-252
-254
-252
-253
-254
-252
-254
-253
-254
-253
-252
-254
-252
-252
-253
-253
-251
-253
-251
-253
-254
-251
-253
-254
-252
-254
-252
-251
-253
-254
-252
-253
-252
-251
-253
-253
-253
-252
-252
-253
-252
-253
-254
-253
-254
-252
-254
-252
-253
-254
-252
-253
-252
-252
-253
-252
-252
-253
-252
-254
-251
-252
-253
-253
-252
-253
-251
-252
-252
-251
-252
-253
-251
-252
-251
-252
-253
-253
-251
-252
-253
-252
-252
-253
-253
-251
-253
-251
-253
-251
-252
-253
-251
-252
-253
-251
-252
-253
-251
-252
-253
-251
-252
-253
-251
-252
-253
-251
-252
-253
-251
-252
-253
-251
-253
-251
-252
-253
-251
-252
-252
-252
-67
-68
-69
-66
-67
-69
-70
-71
-72
-83
-84
-67
-68
-70
-71
-72
-86
-63
-64
-65
-67
-69
-74
-84
-85
-86
-87
-66
-70
-71
-72
-74
-85
-87
-88
-61
-63
-65
-66
-67
-68
-71
-73
-74
-75
-85
-86
-89
-62
-65
-72
-74
-76
-86
-87
-89
-61
-62
-63
-64
-73
-75
-76
-87
-88
-90
-61
-64
-73
-75
-89
-90
-61
-62
-63
-64
-74
-76
-87
-88
-90
-91
-61
-62
-73
-74
-75
-76
-88
-90
-91
-61
-62
-63
-64
-65
-73
-74
-76
-77
-88
-89
-90
-61
-63
-65
-73
-75
-77
-87
-88
-89
-91
-63
-65
-67
-75
-77
-78
-86
-87
-89
-90
-91
-63
-64
-66
-68
-75
-76
-78
-79
-80
-87
-88
-89
-65
-67
-68
-69
-77
-78
-81
-82
-84
-85
-87
-88
-65
-66
-68
-78
-79
-80
-81
-82
-84
-85
-86
-67
-68
-69
-70
-75
-77
-80
-83
-84
-87
-81
-82
-83
-84
-86
-87
-71
-72
-74
-75
-76
-79
-80
-82
-86
-88
-91
-92
-73
-75
-77
-78
-80
-82
-84
-85
-87
-88
-89
-90
-91
-92
-94
-72
-74
-75
-76
-77
-79
-80
-82
-83
-84
-86
-87
-88
-90
-92
-93
-94
-71
-73
-76
-78
-81
-82
-83
-85
-88
-89
-90
-92
-94
-71
-72
-74
-76
-77
-85
-86
-89
-71
-72
-73
-75
-76
-80
-82
-84
-85
-86
-87
-89
-90
-71
-72
-74
-86
-87
-88
-90
-71
-72
-74
-86
-87
-88
-89
-90
-71
-72
-73
-90
-251
-71
-73
-74
-88
-89
-91
-251
-252
-71
-72
-73
-75
-87
-89
-90
-252
-71
-72
-74
-87
-88
-90
-251
-252
-73
-75
-76
-85
-86
-87
-88
-89
-92
-94
-251
-252
-72
-74
-76
-86
-87
-89
-251
-252
-73
-74
-76
-77
-78
-79
-81
-82
-85
-87
-88
-251
-252
-75
-78
-81
-83
-84
-85
-251
-252
-73
-74
-76
-77
-79
-80
-83
-85
-86
-87
-251
-252
-77
-79
-81
-82
-83
-84
-251
-252
-68
-70
-72
-73
-75
-76
-77
-78
-80
-82
-83
-251
-252
-68
-69
-71
-72
-74
-75
-78
-79
-80
-82
-84
-251
-252
-65
-66
-68
-69
-70
-72
-73
-74
-75
-76
-77
-78
-79
-80
-82
-83
-84
-85
-86
-251
-252
-67
-68
-70
-71
-72
-73
-74
-75
-76
-77
-78
-79
-81
-83
-85
-87
-251
-252
-63
-65
-66
-67
-84
-86
-88
-251
-252
-63
-64
-65
-67
-70
-84
-85
-87
-88
-89
-251
-252
-61
-64
-86
-88
-89
-251
-252
-61
-62
-63
-86
-87
-89
-251
-252
-63
-64
-87
-88
-89
-91
-251
-252
-61
-62
-64
-88
-90
-251
-252
-61
-63
-64
-81
-82
-85
-87
-88
-89
-251
-252
-62
-64
-86
-88
-90
-251
-252
-61
-62
-65
-85
-89
-251
-252
-63
-64
-66
-86
-251
-252
-62
-64
-65
-68
-71
-72
-73
-74
-75
-76
-77
-78
-79
-80
-82
-83
-84
-85
-86
-87
-88
-251
-252
-65
-66
-67
-69
-70
-71
-72
-73
-74
-75
-76
-77
-78
-79
-80
-82
-85
-87
-251
-252
-65
-67
-68
-70
-72
-73
-74
-75
-76
-77
-78
-79
-80
-81
-83
-85
-86
-251
-252
-69
-71
-72
-73
-74
-75
-76
-77
-78
-79
-81
-82
-84
-86
-251
-252
-67
-69
-251
-252
-66
-68
-70
-72
-86
-88
-251
-252
-65
-67
-68
-69
-71
-85
-87
-89
-251
-252
-65
-66
-68
-69
-72
-83
-85
-89
-251
-252
-63
-64
-81
-83
-84
-87
-88
-89
-90
-251
-252
-65
-69
-82
-83
-86
-89
-90
-251
-252
-61
-63
-79
-80
-81
-82
-85
-86
-88
-90
-251
-252
-62
-64
-79
-80
-81
-83
-84
-87
-89
-251
-252
-60
-62
-78
-79
-81
-82
-83
-84
-85
-86
-87
-90
-251
-252
-63
-78
-79
-80
-86
-88
-89
-251
-252
-61
-62
-76
-77
-78
-79
-80
-87
-89
-251
-252
-61
-62
-63
-64
-75
-77
-78
-79
-87
-90
-251
-252
-62
-64
-74
-76
-77
-87
-88
-89
-90
-251
-252
-63
-64
-73
-75
-76
-77
-89
-251
-252
-63
-65
-72
-74
-75
-76
-87
-88
-90
-251
-252
-63
-64
-66
-68
-71
-72
-73
-74
-75
-77
-78
-89
-251
-252
-65
-67
-69
-71
-72
-73
-87
-89
-90
-251
-252
-66
-68
-72
-74
-87
-88
-89
-251
-252
-251
-252
-68
-251
-252
-251
-252
-251
-252
-251
-252
-251
-252
-70
-73
-74
-75
-76
-86
-87
-88
-251
-252
-71
-72
-74
-75
-85
-86
-89
-252
-62
-63
-70
-73
-74
-76
-84
-86
-88
-89
-90
-251
-252
-69
-70
-71
-73
-74
-75
-85
-87
-88
-89
-251
-252
-71
-72
-73
-75
-76
-86
-89
-90
-71
-85
-88
-89
-90
-251
-252
-252
-88
-89
-90
-251
-252
-251
-251
-252
-251
-252
-250
-251
-252
-250
-252
-251
-252
-251
-61
-62
-251
-252
-61
-63
-87
-89
-252
-59
-60
-61
-62
-64
-84
-88
-252
-62
-65
-66
-69
-70
-72
-73
-74
-75
-76
-77
-78
-79
-84
-86
-89
-251
-59
-60
-61
-63
-64
-65
-67
-69
-70
-71
-72
-73
-74
-75
-76
-77
-78
-79
-80
-81
-82
-83
-84
-85
-89
-59
-61
-62
-64
-65
-66
-67
-70
-72
-73
-74
-75
-76
-77
-78
-79
-80
-81
-83
-84
-85
-87
-88
-89
-90
-251
-252
-60
-61
-63
-86
-88
-89
-251
-59
-61
-62
-64
-66
-71
-72
-74
-82
-83
-87
-89
-90
-252
-251
-251
-86
-87
-251
-251
-87
-88
-250
-252
-69
-71
-73
-76
-78
-79
-80
-81
-82
-83
-84
-85
-86
-87
-250
-251
-70
-71
-72
-74
-75
-77
-79
-80
-81
-82
-83
-84
-85
-86
-87
-88
-251
-252
-69
-70
-72
-73
-74
-75
-76
-77
-78
-80
-81
-82
-83
-84
-85
-86
-87
-89
-72
-75
-78
-79
-80
-81
-82
-83
-84
-85
-86
-87
-88
-89
-251
-72
-73
-74
-75
-76
-77
-251
-74
-77
-78
-251
-71
-72
-73
-74
-75
-251
-71
-73
-75
-251
-70
-72
-251
-69
-71
-72
-251
-252
-69
-71
-73
-251
-69
-72
-250
-251
-252
-70
-71
-73
-75
-251
-71
-74
-251
-72
-73
-75
-77
-78
-80
-81
-82
-83
-84
-85
-86
-87
-89
-250
-251
-73
-74
-75
-76
-79
-80
-81
-82
-83
-84
-85
-86
-87
-88
-252
-73
-74
-77
-78
-79
-80
-82
-83
-84
-85
-87
-88
-89
-251
-75
-76
-79
-80
-81
-82
-84
-86
-251
-73
-75
-77
-81
-71
-73
-74
-77
-79
-81
-82
-83
-84
-85
-86
-87
-251
-72
-74
-75
-76
-78
-80
-82
-251
-252
-71
-72
-73
-75
-78
-81
-83
-84
-86
-250
-69
-70
-72
-75
-76
-78
-79
-80
-82
-83
-85
-250
-69
-71
-72
-73
-74
-76
-77
-79
-80
-81
-82
-84
-85
-86
-88
-251
-71
-72
-75
-76
-77
-78
-79
-84
-86
-88
-250
-251
-69
-70
-75
-77
-78
-79
-80
-85
-86
-88
-89
-250
-251
-68
-70
-71
-72
-73
-74
-75
-76
-78
-79
-83
-84
-87
-88
-90
-250
-251
-68
-69
-71
-72
-76
-78
-85
-87
-88
-89
-250
-251
-69
-70
-71
-72
-73
-74
-75
-76
-77
-78
-79
-80
-83
-84
-85
-88
-90
-250
-251
-69
-71
-75
-77
-78
-85
-87
-89
-250
-251
-67
-69
-70
-72
-74
-75
-76
-78
-79
-80
-81
-83
-85
-89
-250
-251
-71
-72
-73
-74
-75
-76
-77
-78
-79
-80
-81
-84
-86
-87
-88
-250
-251
-71
-73
-74
-77
-78
-80
-81
-83
-84
-86
-80
-82
-85
-86
-251
-81
-84
-251
-74
-79
-80
-81
-83
-87
-88
-90
-251
-251
-75
-78
-79
-80
-82
-249
-251
-69
-70
-72
-74
-77
-78
-80
-81
-82
-84
-251
-69
-71
-72
-73
-74
-75
-76
-79
-81
-82
-83
-84
-251
-71
-72
-73
-74
-75
-76
-77
-78
-79
-81
-82
-84
-85
-86
-251
-80
-81
-82
-83
-84
-84
-85
-86
-88
-251
-85
-86
-87
-83
-84
-87
-88
-90
-83
-85
-86
-88
-89
-251
-84
-85
-87
-250
-83
-86
-89
-250
-251
-84
-85
-87
-88
-89
-249
-251
-83
-84
-86
-87
-88
-89
-250
-251
-82
-83
-84
-85
-250
-251
-69
-71
-72
-73
-74
-75
-77
-79
-80
-82
-83
-84
-85
-86
-87
-88
-249
-69
-71
-73
-75
-77
-78
-79
-82
-83
-85
-87
-250
-251
-71
-73
-76
-79
-80
-81
-83
-85
-86
-87
-88
-251
-74
-76
-81
-82
-84
-86
-250
-250
-251
-70
-74
-76
-77
-79
-80
-81
-83
-88
-250
-250
-68
-70
-71
-72
-74
-76
-82
-83
-249
-250
-71
-73
-249
-250
-251
-63
-64
-66
-68
-69
-70
-73
-74
-75
-77
-78
-80
-81
-82
-83
-249
-62
-63
-65
-66
-68
-69
-70
-72
-74
-77
-78
-82
-85
-86
-88
-250
-251
-61
-62
-64
-65
-67
-70
-71
-72
-73
-75
-76
-78
-79
-80
-81
-83
-84
-86
-87
-88
-249
-251
-60
-62
-63
-64
-65
-67
-69
-72
-74
-77
-78
-81
-82
-84
-85
-86
-87
-250
-59
-60
-62
-69
-70
-71
-72
-73
-74
-249
-250
-61
-62
-64
-66
-67
-69
-71
-72
-73
-74
-76
-77
-82
-83
-86
-249
-250
-60
-62
-249
-250
-57
-59
-63
-249
-250
-61
-62
-249
-250
-60
-62
-63
-64
-249
-250
-249
-250
-249
-250
-249
-250
-250
-251
-249
-250
-250
-249
-250
-250
-251
-69
-71
-72
-73
-249
-63
-64
-65
-67
-68
-70
-73
-75
-76
-77
-79
-80
-83
-249
-250
-251
-60
-63
-64
-66
-69
-71
-72
-75
-76
-78
-81
-83
-84
-85
-87
-88
-250
-61
-62
-63
-65
-67
-68
-70
-72
-73
-74
-76
-77
-78
-79
-80
-81
-83
-85
-86
-88
-249
-250
-58
-60
-63
-64
-67
-68
-70
-71
-72
-74
-75
-76
-77
-78
-79
-81
-83
-84
-85
-250
-251
-59
-60
-61
-62
-65
-66
-67
-68
-72
-74
-75
-76
-78
-80
-81
-82
-83
-249
-58
-61
-63
-69
-70
-71
-72
-249
-250
-57
-58
-59
-60
-62
-249
-250
-58
-59
-61
-62
-70
-71
-72
-73
-74
-77
-250
-251
-60
-61
-63
-249
-250
-60
-61
-62
-64
-249
-251
-250
-249
-250
-249
-250
-250
-251
-250
-249
-250
-249
-250
-249
-250
-67
-69
-70
-84
-86
-249
-250
-68
-84
-85
-87
-249
-250
-58
-59
-62
-65
-68
-69
-70
-80
-81
-83
-84
-85
-86
-87
-88
-249
-250
-59
-60
-61
-63
-67
-70
-72
-73
-74
-75
-76
-77
-78
-79
-80
-82
-83
-86
-249
-250
-60
-62
-67
-69
-70
-71
-72
-73
-74
-75
-76
-77
-78
-79
-81
-82
-83
-84
-85
-87
-249
-250
-84
-86
-88
-249
-250
-84
-86
-87
-249
-250
-84
-85
-249
-250
-249
-250
-250
-249
-250
-250
-249
-72
-74
-75
-76
-77
-79
-80
-83
-250
-73
-77
-79
-81
-82
-249
-70
-71
-73
-74
-75
-76
-77
-78
-79
-85
-250
-70
-71
-72
-73
-81
-83
-84
-250
-68
-70
-72
-73
-76
-78
-81
-84
-249
-250
-67
-68
-71
-82
-84
-85
-86
-249
-68
-69
-70
-72
-81
-82
-83
-84
-86
-250
-251
-67
-68
-70
-85
-86
-87
-249
-67
-68
-69
-84
-85
-87
-249
-70
-81
-83
-84
-86
-88
-250
-67
-68
-70
-84
-85
-87
-65
-66
-68
-69
-71
-72
-81
-82
-84
-86
-88
-249
-250
-70
-71
-81
-82
-83
-85
-249
-250
-69
-70
-72
-81
-83
-85
-86
-79
-82
-250
-79
-80
-83
-249
-250
-81
-249
-250
-83
-87
-89
-90
-249
-250
-249
-250
-249
-249
-249
-250
-70
-69
-70
-83
-85
-87
-67
-68
-69
-71
-72
-84
-85
-86
-87
-88
-58
-59
-60
-61
-67
-69
-70
-71
-73
-74
-75
-77
-81
-83
-85
-86
-87
-249
-57
-58
-60
-63
-69
-71
-74
-76
-77
-79
-80
-81
-83
-85
-86
-87
-88
-249
-68
-70
-72
-73
-74
-75
-76
-77
-79
-80
-81
-83
-84
-87
-250
-80
-81
-82
-83
-85
-86
-249
-83
-86
-250
-249
-250
-249
-249
-249
-250
-250
-249
-74
-76
-77
-78
-79
-80
-72
-73
-74
-75
-78
-79
-81
-249
-70
-71
-73
-74
-77
-79
-80
-82
-70
-71
-73
-75
-76
-78
-80
-82
-83
-250
-69
-73
-74
-75
-77
-78
-80
-81
-83
-84
-248
-67
-68
-70
-71
-72
-75
-82
-85
-249
-67
-70
-73
-74
-75
-76
-77
-83
-84
-85
-86
-248
-249
-63
-66
-68
-69
-70
-72
-74
-76
-78
-81
-83
-84
-86
-87
-88
-249
-66
-68
-70
-73
-75
-77
-82
-85
-249
-65
-66
-67
-69
-70
-72
-74
-76
-83
-85
-86
-250
-68
-69
-70
-74
-75
-76
-83
-248
-249
-250
-67
-68
-70
-71
-74
-77
-69
-71
-72
-73
-74
-75
-76
-77
-83
-84
-85
-86
-249
-69
-71
-72
-74
-75
-76
-83
-84
-86
-248
-250
-67
-70
-73
-76
-77
-78
-82
-83
-85
-248
-250
-71
-72
-74
-76
-81
-83
-248
-250
-69
-70
-72
-73
-75
-76
-78
-80
-82
-83
-84
-249
-249
-250
-69
-71
-73
-74
-76
-78
-79
-82
-83
-84
-85
-86
-249
-68
-69
-70
-72
-73
-75
-76
-77
-80
-81
-83
-84
-85
-248
-67
-68
-71
-73
-74
-77
-79
-81
-82
-83
-85
-249
-65
-67
-69
-70
-71
-72
-75
-76
-78
-80
-81
-82
-84
-85
-86
-250
-68
-69
-72
-73
-75
-76
-80
-81
-249
-67
-68
-69
-71
-74
-76
-77
-78
-79
-81
-83
-84
-70
-72
-249
-68
-71
-72
-249
-68
-70
-72
-249
-67
-69
-70
-248
-249
-67
-68
-70
-248
-249
-66
-68
-69
-248
-249
-65
-66
-67
-69
-72
-248
-249
-67
-68
-71
-248
-249
-69
-70
-72
-248
-249
-68
-69
-70
-71
-72
-74
-75
-76
-79
-80
-83
-85
-248
-249
-70
-71
-73
-74
-77
-78
-79
-80
-81
-83
-84
-85
-248
-249
-69
-70
-71
-74
-75
-76
-77
-78
-80
-81
-82
-83
-85
-248
-249
-248
-249
-80
-81
-247
-248
-249
-247
-248
-249
-248
-249
-69
-71
-247
-248
-249
-70
-71
-247
-248
-249
-62
-63
-64
-65
-66
-68
-69
-71
-72
-73
-247
-248
-249
-57
-59
-61
-65
-66
-67
-69
-70
-72
-73
-74
-77
-78
-81
-82
-248
-249
-57
-58
-59
-61
-63
-64
-66
-68
-70
-71
-74
-75
-76
-79
-80
-81
-84
-248
-249
-67
-68
-70
-72
-82
-84
-85
-247
-248
-249
-67
-69
-72
-81
-82
-83
-247
-248
-249
-69
-81
-85
-248
-249
-82
-84
-86
-247
-248
-249
-84
-247
-248
-249
-247
-248
-249
-247
-248
-249
-248
-249
-247
-248
-249
-248
-249
-248
-249
-247
-248
-249
-248
-249
-247
-248
-249
-247
-249
-247
-248
-247
-248
-247
-248
-249
-247
-249
-247
-248
-247
-248
-249
-247
-248
-247
-248
-247
-248
-249
-247
-249
-247
-248
-247
-247
-248
-247
-247
-248
-249
-58
-59
-60
-62
-63
-65
-66
-68
-70
-71
-72
-73
-75
-76
-77
-79
-80
-84
-247
-56
-58
-59
-60
-61
-64
-66
-70
-74
-76
-77
-78
-81
-82
-84
-247
-248
-55
-56
-58
-60
-62
-63
-64
-66
-69
-70
-71
-72
-73
-76
-78
-79
-80
-82
-83
-84
-86
-247
-67
-68
-70
-71
-72
-74
-75
-76
-78
-80
-83
-247
-248
-79
-80
-81
-83
-84
-85
-247
-249
-82
-83
-247
-248
-82
-83
-247
-248
-81
-82
-84
-247
-248
-81
-82
-84
-247
-248
-83
-247
-248
-82
-84
-247
-248
-81
-82
-83
-84
-247
-248
-83
-84
-85
-247
-248
-81
-247
-248
-81
-82
-83
-84
-247
-248
-82
-84
-247
-248
-71
-81
-83
-84
-86
-247
-248
-247
-248
-247
-248
-247
-248
-247
-248
-247
-248
-247
-248
-247
-248
-65
-67
-82
-84
-247
-248
-82
-83
-84
-247
-248
-55
-57
-58
-60
-66
-68
-71
-80
-81
-82
-84
-247
-248
-55
-57
-58
-65
-67
-68
-70
-71
-72
-73
-74
-75
-76
-77
-78
-79
-81
-84
-247
-248
-55
-56
-57
-59
-66
-67
-69
-70
-71
-72
-73
-74
-75
-76
-77
-78
-79
-80
-81
-83
-247
-248
-81
-82
-84
-247
-248
-81
-83
-247
-248
-247
-248
-247
-248
-247
-248
-247
-248
-247
-248
-247
-248
-247
-248
-70
-71
-72
-73
-75
-76
-247
-248
-69
-70
-72
-73
-75
-77
-247
-248
-67
-68
-69
-70
-72
-73
-74
-76
-77
-78
-87
-88
-69
-76
-77
-79
-86
-87
-89
-247
-248
-66
-67
-69
-70
-73
-75
-76
-78
-80
-81
-82
-86
-88
-90
-248
-66
-67
-78
-79
-85
-86
-87
-89
-247
-248
-64
-66
-79
-80
-82
-87
-88
-90
-64
-65
-67
-78
-81
-87
-248
-65
-66
-79
-80
-82
-85
-86
-88
-89
-247
-248
-66
-79
-81
-82
-85
-87
-88
-89
-246
-64
-65
-67
-80
-82
-85
-86
-88
-246
-247
-248
-66
-67
-68
-78
-79
-81
-83
-84
-87
-89
-90
-246
-247
-248
-66
-68
-69
-77
-80
-83
-84
-85
-86
-246
-247
-248
-65
-68
-69
-76
-79
-80
-81
-83
-84
-86
-88
-246
-247
-67
-69
-70
-71
-72
-74
-76
-78
-80
-81
-82
-84
-246
-247
-248
-68
-71
-73
-75
-76
-78
-82
-84
-246
-247
-248
-68
-69
-71
-74
-75
-79
-80
-82
-246
-247
-248
-71
-72
-74
-78
-246
-247
-59
-61
-62
-63
-64
-66
-67
-69
-71
-72
-73
-74
-77
-78
-79
-80
-82
-84
-246
-247
-248
-57
-58
-60
-61
-63
-64
-67
-70
-72
-75
-76
-78
-79
-80
-81
-246
-247
-55
-56
-57
-59
-60
-62
-64
-65
-66
-67
-68
-70
-72
-73
-76
-77
-78
-81
-83
-84
-246
-247
-248
-55
-57
-58
-60
-62
-63
-65
-66
-67
-69
-70
-73
-75
-76
-77
-79
-80
-246
-247
-248
-66
-68
-246
-247
-248
-61
-63
-65
-67
-68
-69
-70
-72
-246
-247
-64
-65
-66
-246
-247
-63
-65
-67
-68
-246
-247
-63
-64
-66
-246
-247
-64
-65
-246
-247
-63
-64
-65
-66
-68
-246
-247
-63
-64
-66
-246
-247
-63
-64
-65
-67
-68
-246
-247
-65
-66
-68
-246
-247
-65
-66
-68
-69
-77
-246
-247
-66
-67
-68
-69
-70
-73
-74
-75
-77
-79
-80
-82
-246
-247
-67
-68
-69
-70
-72
-73
-75
-77
-78
-81
-246
-247
-67
-69
-71
-72
-74
-76
-77
-79
-80
-81
-82
-246
-247
-246
-247
-69
-70
-74
-82
-246
-247
-246
-247
-246
-247
-66
-67
-246
-247
-66
-67
-246
-247
-55
-56
-57
-58
-59
-60
-61
-62
-63
-66
-67
-69
-70
-72
-73
-75
-77
-246
-247
-55
-56
-57
-58
-59
-60
-61
-62
-63
-64
-65
-66
-67
-69
-71
-72
-74
-76
-78
-79
-80
-246
-247
-54
-56
-57
-58
-59
-60
-61
-62
-63
-64
-65
-67
-68
-70
-73
-75
-76
-78
-80
-83
-246
-247
-55
-56
-57
-58
-59
-60
-61
-62
-63
-66
-67
-69
-71
-72
-80
-83
-246
-247
-66
-67
-69
-70
-79
-81
-82
-83
-246
-247
-65
-66
-68
-80
-81
-83
-246
-247
-79
-80
-83
-246
-247
-81
-82
-246
-247
-246
-247
-246
-247
-246
-247
-246
-247
-246
-247
-246
-247
-246
-247
-246
-247
-246
-247
-245
-246
-247
-245
-246
-245
-247
-245
-247
-246
-246
-245
-246
-247
-247
-245
-246
-247
-245
-246
-245
-246
-247
-247
-246
-246
-247
-245
-247
-245
-247
-245
-246
-246
-247
-245
-246
-245
-245
-246
-245
-246
-245
-246
-245
-246
-245
-246
-245
-246
-245
-246
-245
-246
-245
-246
-245
-246
-245
-246
-245
-246
-245
-246
-245
-246
-245
-246
-245
-246
-245
-246
-245
-246
-245
-246
-245
-246
-245
-246
-245
-246
-245
-246
-245
-246
-245
-246
-245
-246
-245
-246
-245
-246
-245
-246
-245
-246
-245
-246
-245
-246
-245
-246
-245
-246
-245
-246
-245
-246
-245
-246
-245
-246
-245
-246
-245
-246
-245
-246
-245
-246
-245
-245
-245
-246
-244
-245
-244
-246
-244
-245
-246
-245
-244
-245
-246
-245
-246
-245
-246
-245
-246
-245
-246
-245
-246
-245
-246
-245
-246
-245
-246
-245
-246
-245
-246
-245
-246
-245
-246
-245
-246
-245
-246
-245
-246
-245
-246
-244
-245
-244
-244
-245
-245
-245
-244
-245
-244
-245
-244
-245
-244
-245
-244
-245
-244
-245
-244
-245
-244
-245
-244
-245
-244
-245
-245
-244
-245
-244
-245
-243
-244
-244
-245
-244
-244
-244
-245
-243
-244
-244
-245
-244
-245
-245
-244
-245
-244
-245
-244
-243
-244
-245
-243
-244
-245
-243
-245
-243
-245
-243
-244
-244
-245
-244
-243
-244
-243
-244
-243
-244
-244
-243
-244
-243
-244
-243
-244
-243
-244
-243
-244
-243
-244
-243
-244
-243
-244
-243
-244
-243
-244
-243
-244
-243
-244
-243
-244
-243
-244
-243
-244
-243
-244
-243
-244
-243
-244
-243
-244
-243
-244
-243
-244
-243
-244
-243
-244
-243
-244
-243
-244
-243
-244
-243
-244
-243
-244
-243
-244
-243
-244
-243
-244
-243
-244
-243
-244
-243
-243
-244
-243
-243
-244
-244
-244
-243
-244
-244
-243
-242
-242
-243
-244
-243
-243
-244
-242
-244
-444
-446
-450
-451
-452
-453
-440
-442
-444
-445
-447
-448
-449
-450
-452
-453
-440
-441
-442
-443
-445
-446
-447
-448
-450
-451
-453
-341
-441
-447
-448
-449
-297
-299
-300
-309
-311
-313
-314
-315
-317
-329
-330
-341
-440
-441
-442
-447
-449
-269
-286
-287
-288
-291
-294
-295
-297
-300
-308
-310
-311
-312
-314
-315
-316
-318
-319
-329
-342
-440
-442
-448
-450
-267
-268
-276
-287
-289
-291
-292
-293
-295
-296
-297
-298
-299
-309
-310
-311
-312
-313
-315
-316
-317
-318
-320
-329
-338
-339
-340
-341
-441
-447
-449
-450
-265
-266
-268
-270
-285
-286
-290
-292
-293
-294
-306
-307
-320
-321
-327
-328
-338
-339
-341
-440
-441
-442
-447
-448
-451
-263
-264
-269
-270
-271
-272
-278
-285
-286
-291
-292
-293
-306
-320
-327
-328
-336
-337
-339
-342
-440
-449
-452
-156
-158
-160
-161
-164
-264
-265
-271
-272
-277
-279
-285
-292
-321
-328
-336
-338
-341
-342
-440
-441
-442
-448
-109
-110
-114
-115
-116
-118
-119
-120
-121
-122
-123
-124
-125
-126
-127
-128
-129
-151
-152
-153
-156
-157
-158
-159
-160
-162
-163
-263
-264
-271
-277
-278
-285
-286
-292
-293
-307
-321
-327
-328
-335
-337
-441
-445
-446
-447
-101
-102
-104
-106
-107
-109
-111
-112
-114
-116
-118
-121
-122
-123
-124
-125
-128
-129
-169
-263
-265
-271
-277
-278
-279
-285
-291
-292
-293
-306
-307
-320
-321
-327
-328
-335
-342
-443
-444
-445
-446
-103
-104
-105
-107
-108
-109
-113
-115
-116
-127
-128
-129
-150
-167
-168
-170
-263
-264
-265
-272
-278
-286
-292
-305
-306
-320
-342
-102
-114
-127
-128
-129
-167
-263
-265
-271
-277
-279
-286
-293
-306
-320
-329
-331
-333
-341
-393
-394
-395
-128
-129
-148
-170
-172
-263
-264
-271
-272
-277
-279
-285
-286
-288
-289
-291
-292
-310
-311
-313
-314
-315
-318
-319
-329
-331
-342
-392
-393
-394
-102
-113
-127
-128
-129
-147
-266
-274
-276
-277
-287
-288
-289
-291
-309
-310
-312
-313
-317
-330
-331
-391
-393
-395
-396
-101
-102
-113
-114
-127
-128
-129
-146
-147
-173
-174
-176
-267
-273
-275
-276
-288
-290
-291
-389
-391
-392
-394
-395
-101
-113
-114
-127
-128
-129
-144
-145
-146
-175
-176
-391
-102
-128
-129
-144
-179
-386
-387
-388
-389
-400
-101
-102
-113
-114
-129
-143
-178
-179
-231
-232
-234
-386
-388
-395
-396
-400
-101
-102
-113
-114
-127
-128
-142
-183
-233
-385
-387
-400
-101
-102
-113
-114
-127
-128
-129
-142
-181
-182
-184
-234
-373
-375
-376
-378
-383
-384
-396
-398
-101
-102
-141
-143
-183
-228
-234
-373
-375
-376
-378
-381
-382
-383
-395
-397
-101
-102
-127
-128
-142
-143
-185
-186
-234
-373
-374
-376
-377
-379
-380
-396
-101
-102
-127
-141
-143
-186
-223
-224
-225
-226
-232
-233
-234
-237
-371
-372
-396
-101
-102
-127
-128
-142
-143
-187
-188
-223
-226
-233
-371
-372
-393
-395
-396
-101
-102
-143
-187
-232
-234
-235
-236
-370
-394
-395
-141
-143
-190
-191
-211
-212
-213
-215
-216
-219
-221
-222
-232
-234
-369
-370
-393
-394
-396
-398
-399
-400
-189
-191
-212
-213
-214
-217
-219
-220
-233
-369
-370
-395
-396
-398
-399
-115
-116
-117
-119
-120
-122
-145
-208
-209
-210
-232
-233
-234
-369
-370
-389
-391
-395
-397
-399
-400
-440
-441
-442
-443
-444
-445
-447
-448
-449
-452
-106
-108
-110
-112
-114
-115
-117
-118
-119
-120
-122
-193
-208
-210
-233
-369
-370
-388
-389
-396
-397
-399
-400
-442
-443
-445
-447
-449
-450
-452
-126
-146
-147
-208
-230
-232
-369
-370
-387
-395
-397
-398
-400
-440
-441
-442
-103
-104
-126
-195
-196
-207
-231
-233
-317
-323
-324
-325
-327
-329
-330
-332
-333
-335
-337
-338
-342
-369
-370
-386
-387
-396
-398
-440
-104
-125
-150
-196
-228
-235
-236
-238
-285
-286
-287
-288
-289
-290
-291
-292
-293
-294
-295
-296
-297
-298
-299
-300
-301
-302
-303
-304
-305
-306
-307
-308
-309
-310
-311
-313
-314
-315
-319
-320
-324
-326
-328
-329
-331
-333
-334
-335
-336
-339
-341
-342
-369
-370
-385
-386
-395
-396
-441
-442
-103
-128
-149
-198
-206
-207
-208
-227
-229
-234
-237
-263
-264
-265
-266
-267
-268
-269
-270
-271
-272
-273
-274
-275
-276
-277
-278
-279
-280
-281
-283
-285
-287
-288
-289
-290
-291
-292
-293
-294
-295
-296
-297
-298
-299
-300
-301
-302
-303
-304
-305
-306
-307
-308
-309
-310
-311
-312
-314
-315
-316
-318
-319
-320
-322
-323
-325
-327
-328
-329
-330
-332
-333
-340
-342
-369
-370
-386
-395
-396
-440
-101
-102
-128
-149
-197
-198
-206
-207
-233
-235
-237
-263
-264
-265
-267
-269
-270
-272
-273
-274
-277
-279
-280
-281
-282
-283
-284
-285
-286
-287
-288
-289
-290
-291
-292
-293
-294
-295
-296
-297
-298
-299
-300
-301
-302
-303
-341
-342
-370
-371
-372
-383
-384
-385
-441
-442
-101
-127
-128
-151
-152
-155
-225
-226
-227
-233
-235
-237
-238
-263
-265
-266
-267
-268
-269
-271
-272
-274
-275
-276
-341
-342
-372
-440
-101
-102
-127
-128
-151
-153
-154
-155
-198
-206
-226
-233
-263
-264
-341
-342
-371
-374
-375
-376
-378
-379
-380
-382
-384
-440
-441
-442
-102
-152
-154
-155
-207
-223
-232
-263
-264
-341
-342
-373
-374
-376
-379
-382
-383
-384
-442
-102
-128
-151
-152
-153
-155
-195
-224
-232
-263
-341
-342
-373
-375
-377
-378
-381
-383
-384
-395
-440
-441
-442
-101
-127
-128
-207
-233
-263
-264
-341
-342
-377
-379
-385
-388
-395
-440
-125
-126
-149
-210
-220
-222
-232
-233
-263
-341
-342
-378
-385
-387
-388
-441
-104
-124
-148
-192
-193
-208
-209
-221
-222
-263
-264
-341
-342
-377
-378
-389
-390
-440
-441
-442
-103
-147
-191
-192
-213
-215
-216
-217
-219
-220
-221
-233
-263
-264
-341
-375
-376
-377
-390
-391
-395
-441
-442
-106
-107
-124
-147
-189
-190
-191
-213
-215
-217
-218
-219
-221
-232
-233
-263
-264
-341
-342
-376
-393
-394
-395
-440
-106
-145
-217
-224
-233
-263
-264
-341
-373
-374
-375
-392
-394
-441
-145
-188
-189
-215
-216
-223
-225
-226
-233
-234
-263
-264
-342
-392
-393
-440
-441
-442
-187
-216
-233
-263
-264
-341
-342
-372
-440
-119
-143
-187
-214
-228
-263
-264
-341
-342
-370
-371
-372
-440
-442
-105
-106
-107
-109
-111
-112
-114
-116
-118
-120
-122
-123
-184
-185
-186
-213
-263
-264
-341
-371
-441
-105
-106
-108
-109
-112
-115
-119
-141
-142
-184
-186
-230
-233
-263
-264
-341
-441
-442
-443
-444
-446
-447
-448
-449
-450
-452
-453
-104
-125
-126
-141
-142
-143
-180
-181
-183
-184
-212
-230
-231
-232
-233
-264
-340
-342
-440
-442
-445
-447
-448
-449
-450
-452
-453
-103
-104
-141
-142
-143
-181
-182
-183
-184
-211
-263
-264
-341
-342
-440
-127
-128
-141
-142
-143
-182
-208
-209
-263
-264
-325
-327
-336
-337
-338
-340
-342
-101
-128
-142
-143
-177
-179
-208
-264
-296
-298
-301
-303
-305
-307
-309
-310
-313
-315
-316
-317
-319
-320
-321
-323
-324
-326
-327
-328
-329
-330
-331
-332
-333
-334
-335
-337
-340
-342
-100
-102
-127
-141
-177
-178
-263
-264
-266
-267
-269
-271
-272
-274
-275
-279
-280
-281
-282
-283
-284
-285
-286
-287
-288
-289
-291
-293
-294
-295
-296
-297
-298
-299
-300
-301
-303
-304
-305
-307
-308
-309
-310
-313
-315
-317
-318
-319
-320
-323
-324
-326
-328
-329
-330
-331
-332
-333
-334
-335
-340
-341
-100
-116
-127
-128
-141
-174
-263
-264
-266
-269
-273
-275
-276
-277
-278
-279
-280
-281
-282
-283
-284
-285
-286
-287
-288
-290
-291
-293
-295
-300
-302
-305
-306
-311
-312
-101
-102
-115
-116
-127
-128
-174
-175
-176
-263
-264
-265
-266
-268
-269
-270
-271
-272
-273
-275
-276
-277
-101
-115
-127
-128
-144
-173
-100
-101
-127
-128
-170
-172
-101
-115
-116
-125
-126
-171
-104
-115
-124
-126
-168
-103
-116
-117
-149
-150
-166
-169
-105
-106
-115
-116
-118
-121
-123
-165
-106
-115
-117
-119
-152
-156
-158
-160
-162
-164
-151
-152
-154
-156
-157
-159
-160
-164
