-66
-67
-80
-81
-87
-88
-89
-96
-97
-284
-66
-74
-80
-82
-89
-90
-92
-94
-96
-97
-67
-81
-89
-92
-93
-97
-81
-90
-91
-93
-94
-96
-224
-225
-90
-91
-92
-93
-95
-67
-70
-73
-75
-78
-85
-87
-225
-231
-232
-233
-234
-235
-236
-237
-238
-239
-242
-243
-247
-248
-280
-284
-65
-67
-69
-70
-71
-72
-73
-75
-76
-78
-80
-81
-85
-87
-90
-91
-93
-94
-96
-225
-66
-67
-68
-70
-74
-76
-77
-78
-85
-86
-88
-89
-91
-92
-95
-96
-97
-98
-225
-277
-287
-65
-67
-77
-79
-80
-81
-85
-87
-88
-90
-92
-94
-97
-98
-99
-65
-67
-80
-81
-99
-289
-67
-80
-99
-100
-289
-66
-68
-81
-82
-99
-67
-68
-69
-70
-78
-80
-98
-69
-77
-79
-98
-100
-224
-69
-70
-72
-74
-75
-76
-77
-84
-87
-88
-90
-91
-92
-98
-99
-100
-224
-225
-71
-72
-73
-75
-84
-85
-86
-89
-91
-95
-96
-98
-99
-229
-231
-234
-268
-269
-70
-73
-74
-76
-77
-84
-85
-87
-88
-90
-92
-93
-95
-96
-97
-229
-230
-232
-233
-235
-237
-238
-246
-247
-248
-250
-288
-289
-85
-87
-88
-89
-91
-92
-93
-95
-96
-97
-225
-243
-245
-246
-247
-248
-249
-250
-266
-288
-289
-68
-225
-250
-266
-289
-69
-70
-71
-73
-74
-76
-78
-79
-84
-85
-86
-87
-88
-91
-93
-94
-249
-263
-264
-268
-68
-69
-71
-72
-74
-75
-77
-78
-84
-85
-86
-89
-92
-93
-95
-96
-97
-99
-263
-265
-266
-269
-271
-272
-273
-274
-275
-276
-277
-278
-279
-280
-281
-282
-283
-284
-285
-66
-67
-68
-70
-71
-72
-73
-75
-76
-77
-79
-81
-84
-85
-87
-88
-89
-90
-91
-93
-95
-96
-98
-99
-100
-281
-282
-284
-288
-65
-66
-67
-75
-76
-77
-79
-81
-93
-94
-98
-100
-289
-65
-74
-75
-79
-80
-99
-289
-66
-67
-72
-74
-79
-80
-81
-99
-100
-65
-67
-70
-71
-72
-74
-79
-80
-81
-98
-99
-100
-288
-289
-65
-67
-70
-71
-72
-73
-99
-67
-69
-71
-73
-75
-76
-80
-81
-98
-100
-68
-69
-72
-74
-75
-77
-78
-80
-81
-98
-99
-100
-68
-70
-71
-72
-73
-75
-77
-79
-99
-100
-69
-70
-71
-73
-75
-78
-79
-100
-99
-83
-84
-86
-67
-68
-79
-84
-85
-86
-68
-79
-80
-81
-84
-85
-86
-67
-69
-71
-72
-73
-75
-76
-77
-79
-81
-85
-65
-66
-68
-70
-73
-74
-77
-78
-80
-85
-86
-87
-90
-92
-95
-97
-98
-65
-67
-68
-69
-71
-72
-74
-75
-76
-79
-80
-85
-88
-89
-90
-91
-92
-96
-97
-98
-100
-254
-72
-73
-75
-76
-78
-79
-81
-84
-86
-87
-89
-91
-93
-94
-95
-96
-98
-100
-80
-85
-88
-92
-94
-97
-98
-99
-254
-255
-80
-81
-84
-85
-254
-84
-86
-254
-255
-85
-86
-254
-84
-85
-254
-255
-254
-254
-254
-255
-254
-255
-254
-255
-254
-255
-254
-254
-255
-254
-255
-254
-255
-254
-254
-253
-255
-253
-255
-253
-253
-253
-254
-254
-253
-254
-255
-253
-254
-254
-253
-254
-253
-254
-253
-254
-253
-254
-253
-254
-253
-254
-253
-254
-253
-254
-253
-254
-253
-254
-253
-254
-253
-254
-253
-254
-253
-254
-253
-254
-253
-254
-253
-254
-253
-254
-253
-254
-253
-254
-253
-254
-253
-254
-253
-254
-253
-254
-253
-254
-253
-254
-253
-254
-253
-254
-253
-254
-253
-254
-253
-254
-253
-254
-253
-254
-253
-254
-253
-254
-253
-254
-253
-254
-253
-254
-253
-254
-253
-254
-253
-254
-253
-254
-253
-254
-253
-254
-253
-254
-253
-254
-253
-254
-253
-254
-253
-254
-253
-254
-253
-254
-253
-254
-253
-254
-253
-254
-253
-254
-253
-254
-253
-254
-253
-254
-253
-254
-253
-254
-253
-254
-253
-254
-253
-254
-253
-254
-253
-254
-254
-253
-254
-253
-254
-253
-254
-253
-254
-253
-254
-253
-254
-253
-254
-254
-254
-253
-254
-253
-253
-254
-253
-254
-253
-254
-253
-254
-253
-254
-253
-254
-253
-254
-253
-254
-253
-254
-253
-254
-254
-253
-254
-254
-252
-253
-254
-252
-253
-253
-254
-253
-254
-253
-254
-253
-254
-253
-254
-253
-254
-253
-254
-253
-254
-253
-254
-253
-254
-253
-252
-253
-254
-253
-252
-254
-253
-254
-253
-254
-253
-254
-253
-254
-253
-254
-253
-254
-253
-254
-253
-254
-253
-254
-253
-254
-253
-254
-253
-254
-253
-254
-253
-254
-253
-254
-253
-254
-253
-254
-253
-254
-253
-254
-253
-254
-253
-254
-253
-254
-253
-254
-253
-254
-253
-254
-253
-254
-253
-254
-253
-254
-253
-254
-253
-254
-253
-254
-253
-254
-253
-254
-253
-254
-253
-254
-253
-254
-253
-254
-253
-254
-253
-254
-253
-254
-252
-253
-254
-252
-254
-252
-253
-254
-253
-254
-252
-253
-252
-252
-253
-253
-252
-253
-254
-252
-254
-252
-253
-254
-252
-254
-253
-254
-253
-253
-254
-252
-253
-252
-253
-253
-252
-253
-252
-252
-252
-253
-253
-252
-251
-252
-253
-251
-253
-254
-251
-252
-253
-252
-253
-252
-253
-253
-251
-252
-252
-252
-253
-254
-251
-253
-254
-251
-253
-253
-251
-253
-252
-253
-252
-251
-252
-253
-253
-251
-252
-253
-251
-252
-253
-251
-252
-253
-251
-252
-253
-251
-252
-253
-251
-252
-253
-251
-252
-253
-251
-252
-253
-251
-252
-253
-251
-252
-253
-251
-252
-253
-251
-252
-253
-251
-252
-253
-251
-252
-253
-251
-252
-253
-251
-252
-253
-251
-252
-253
-251
-252
-253
-251
-252
-253
-251
-252
-253
-251
-252
-253
-251
-252
-253
-251
-252
-253
-251
-252
-253
-251
-252
-253
-251
-252
-253
-251
-252
-253
-251
-252
-253
-251
-252
-253
-251
-252
-253
-251
-252
-253
-251
-252
-253
-251
-252
-253
-251
-252
-253
-251
-252
-253
-251
-252
-253
-251
-252
-253
-251
-252
-253
-251
-252
-253
-251
-252
-253
-251
-252
-253
-251
-252
-253
-251
-252
-253
-251
-252
-253
-251
-252
-253
-251
-252
-253
-251
-252
-253
-251
-252
-253
-251
-252
-253
-251
-252
-253
-251
-252
-253
-251
-252
-253
-251
-252
-253
-251
-252
-253
-251
-252
-253
-251
-252
-253
-251
-252
-253
-67
-251
-252
-253
-65
-66
-67
-68
-69
-70
-71
-72
-83
-84
-86
-87
-251
-252
-253
-66
-68
-72
-83
-85
-86
-251
-252
-253
-63
-64
-67
-69
-70
-71
-74
-83
-84
-85
-86
-251
-252
-253
-66
-67
-71
-72
-74
-85
-87
-88
-251
-252
-253
-61
-63
-64
-65
-67
-68
-73
-74
-75
-86
-89
-251
-252
-253
-62
-64
-66
-72
-74
-76
-86
-87
-89
-251
-252
-253
-61
-62
-63
-73
-75
-76
-87
-88
-90
-91
-251
-252
-253
-61
-64
-73
-75
-85
-86
-89
-92
-251
-252
-253
-61
-62
-63
-64
-74
-76
-88
-90
-91
-251
-252
-253
-61
-62
-66
-73
-74
-75
-76
-87
-88
-91
-251
-252
-253
-61
-62
-63
-64
-73
-74
-76
-77
-88
-89
-251
-252
-253
-61
-63
-64
-65
-73
-75
-77
-87
-89
-91
-251
-252
-253
-63
-66
-67
-75
-77
-78
-85
-87
-89
-91
-92
-251
-252
-253
-63
-64
-65
-67
-68
-75
-76
-78
-79
-85
-86
-88
-251
-252
-253
-65
-67
-68
-69
-75
-78
-79
-81
-82
-84
-85
-87
-88
-89
-90
-251
-252
-65
-66
-67
-77
-79
-80
-81
-82
-84
-85
-86
-253
-67
-68
-69
-75
-76
-78
-80
-83
-84
-87
-251
-252
-253
-81
-82
-83
-84
-86
-87
-253
-71
-72
-74
-76
-77
-78
-80
-82
-86
-90
-251
-252
-71
-73
-74
-77
-78
-79
-80
-82
-84
-85
-87
-88
-90
-91
-92
-94
-252
-69
-71
-72
-73
-74
-76
-77
-79
-80
-82
-83
-84
-86
-87
-88
-90
-92
-94
-71
-72
-75
-76
-77
-79
-81
-82
-83
-85
-88
-89
-90
-91
-93
-94
-251
-252
-73
-75
-77
-85
-86
-89
-251
-252
-71
-72
-74
-75
-80
-82
-84
-85
-86
-87
-89
-90
-72
-73
-74
-86
-87
-88
-90
-251
-252
-71
-73
-74
-86
-87
-88
-89
-90
-251
-72
-73
-90
-251
-73
-74
-76
-88
-89
-91
-252
-71
-72
-74
-87
-89
-90
-253
-70
-73
-87
-88
-90
-251
-252
-73
-74
-75
-85
-86
-87
-88
-89
-92
-94
-251
-252
-72
-73
-75
-76
-86
-87
-89
-251
-252
-74
-75
-76
-79
-81
-82
-85
-87
-88
-251
-252
-77
-78
-81
-83
-84
-85
-251
-252
-73
-76
-77
-79
-80
-83
-85
-86
-87
-251
-252
-75
-78
-79
-81
-82
-83
-84
-251
-252
-67
-68
-69
-70
-73
-74
-77
-78
-80
-82
-83
-251
-252
-67
-69
-71
-72
-73
-75
-77
-79
-80
-82
-84
-251
-252
-65
-66
-67
-69
-70
-71
-72
-73
-74
-75
-76
-77
-78
-79
-80
-82
-83
-84
-85
-86
-251
-252
-65
-67
-68
-71
-72
-73
-74
-75
-76
-77
-78
-79
-81
-83
-85
-87
-251
-252
-63
-65
-84
-86
-88
-251
-252
-63
-65
-66
-67
-84
-85
-87
-88
-89
-251
-252
-61
-62
-63
-64
-86
-88
-89
-251
-252
-62
-64
-86
-87
-89
-251
-252
-61
-62
-63
-87
-88
-89
-91
-251
-252
-61
-62
-63
-64
-88
-90
-251
-252
-61
-63
-64
-87
-88
-89
-251
-252
-62
-86
-88
-90
-251
-252
-61
-62
-64
-65
-66
-85
-89
-251
-252
-63
-85
-87
-251
-252
-62
-64
-65
-67
-70
-72
-73
-74
-75
-76
-77
-78
-79
-80
-81
-83
-84
-85
-86
-87
-88
-251
-252
-65
-67
-68
-69
-71
-72
-73
-74
-75
-76
-77
-78
-79
-82
-87
-251
-252
-66
-68
-69
-70
-71
-72
-73
-74
-75
-76
-77
-78
-79
-80
-81
-84
-85
-86
-251
-252
-68
-70
-72
-73
-74
-75
-76
-77
-78
-79
-81
-82
-84
-87
-251
-252
-67
-68
-251
-252
-66
-68
-69
-70
-71
-80
-81
-85
-86
-88
-251
-252
-65
-67
-70
-71
-84
-86
-87
-89
-251
-252
-65
-67
-68
-69
-70
-71
-72
-84
-87
-89
-251
-252
-63
-64
-66
-82
-83
-84
-85
-86
-88
-89
-90
-251
-252
-62
-65
-67
-82
-83
-85
-86
-89
-90
-251
-252
-61
-63
-64
-82
-84
-86
-87
-88
-90
-251
-252
-62
-63
-79
-80
-81
-82
-83
-86
-87
-89
-251
-252
-61
-62
-63
-77
-78
-79
-81
-82
-84
-85
-87
-88
-89
-90
-251
-252
-62
-64
-79
-80
-86
-88
-89
-90
-251
-252
-61
-62
-76
-77
-78
-85
-87
-88
-89
-90
-251
-252
-62
-63
-64
-77
-79
-86
-87
-88
-89
-90
-251
-252
-61
-64
-74
-75
-77
-78
-79
-87
-88
-89
-90
-251
-252
-62
-64
-73
-76
-88
-89
-90
-251
-252
-63
-66
-67
-71
-72
-73
-75
-86
-87
-88
-89
-90
-251
-252
-63
-64
-67
-68
-69
-71
-73
-74
-76
-86
-88
-89
-90
-251
-252
-66
-67
-68
-69
-70
-72
-73
-87
-89
-90
-250
-252
-65
-66
-68
-70
-71
-72
-74
-87
-88
-89
-250
-251
-252
-71
-89
-252
-251
-252
-251
-252
-251
-70
-73
-74
-75
-76
-85
-87
-88
-251
-252
-71
-72
-74
-75
-86
-89
-252
-62
-63
-71
-73
-74
-76
-84
-85
-87
-88
-89
-90
-251
-252
-69
-70
-71
-73
-74
-75
-86
-88
-89
-250
-251
-252
-69
-71
-72
-73
-75
-76
-84
-85
-86
-87
-89
-90
-71
-85
-87
-88
-89
-90
-251
-252
-252
-85
-87
-88
-89
-90
-252
-251
-252
-251
-251
-252
-252
-252
-250
-251
-250
-252
-250
-252
-250
-251
-87
-252
-87
-89
-90
-252
-59
-61
-63
-64
-85
-87
-88
-90
-251
-252
-59
-60
-61
-63
-65
-66
-69
-70
-72
-73
-74
-75
-76
-77
-78
-79
-80
-81
-82
-84
-86
-88
-90
-251
-59
-60
-61
-63
-64
-65
-67
-69
-70
-71
-72
-73
-74
-75
-76
-77
-78
-79
-80
-82
-84
-85
-89
-252
-59
-61
-62
-63
-64
-65
-66
-67
-70
-72
-73
-74
-75
-76
-77
-78
-79
-80
-82
-83
-84
-86
-87
-88
-89
-251
-60
-61
-63
-86
-88
-90
-251
-59
-61
-62
-64
-65
-66
-67
-68
-69
-70
-71
-72
-75
-77
-78
-79
-83
-84
-86
-88
-251
-252
-88
-251
-252
-73
-83
-88
-251
-252
-250
-251
-87
-250
-251
-69
-71
-73
-76
-78
-79
-80
-81
-82
-85
-86
-87
-250
-70
-71
-72
-74
-75
-77
-79
-80
-81
-83
-84
-87
-88
-251
-252
-69
-70
-72
-73
-74
-75
-76
-77
-78
-81
-82
-83
-86
-87
-89
-251
-252
-72
-75
-78
-79
-80
-82
-83
-84
-86
-88
-89
-251
-72
-73
-74
-75
-76
-77
-251
-74
-77
-78
-87
-250
-252
-71
-72
-73
-74
-75
-251
-252
-71
-73
-75
-250
-251
-70
-72
-251
-69
-71
-72
-251
-69
-71
-73
-74
-251
-69
-72
-73
-70
-71
-72
-74
-76
-251
-71
-73
-72
-74
-75
-77
-78
-80
-81
-82
-83
-84
-85
-86
-87
-88
-73
-74
-76
-77
-79
-80
-81
-82
-83
-84
-85
-86
-87
-88
-250
-73
-75
-77
-79
-80
-82
-83
-84
-85
-87
-88
-89
-250
-73
-75
-76
-78
-80
-81
-82
-84
-86
-250
-251
-75
-81
-71
-73
-75
-76
-77
-79
-81
-82
-83
-84
-85
-86
-87
-88
-251
-71
-72
-74
-75
-76
-77
-78
-80
-82
-251
-70
-74
-77
-78
-79
-81
-83
-84
-86
-251
-69
-70
-72
-73
-75
-76
-79
-80
-82
-83
-85
-71
-73
-75
-77
-78
-80
-81
-82
-84
-85
-86
-251
-70
-72
-75
-76
-77
-78
-79
-83
-85
-87
-88
-89
-250
-251
-69
-75
-77
-78
-79
-80
-85
-86
-87
-88
-250
-251
-70
-71
-72
-73
-74
-75
-76
-78
-79
-84
-86
-88
-89
-90
-250
-251
-69
-71
-72
-76
-78
-86
-250
-251
-67
-69
-71
-72
-73
-74
-75
-76
-77
-78
-79
-80
-83
-84
-87
-88
-89
-90
-250
-251
-69
-70
-71
-75
-77
-78
-86
-89
-250
-251
-68
-69
-71
-72
-74
-75
-76
-78
-79
-85
-87
-88
-89
-250
-251
-70
-72
-73
-74
-75
-76
-77
-78
-79
-80
-81
-83
-84
-86
-250
-251
-71
-73
-75
-78
-80
-81
-83
-84
-86
-251
-72
-79
-80
-82
-85
-86
-250
-81
-84
-251
-73
-74
-79
-80
-81
-83
-87
-88
-90
-249
-250
-79
-80
-82
-251
-69
-70
-73
-74
-75
-77
-78
-80
-81
-82
-84
-251
-69
-71
-72
-74
-75
-76
-79
-81
-82
-83
-84
-250
-70
-71
-72
-73
-74
-75
-76
-77
-78
-79
-80
-81
-82
-83
-86
-251
-83
-85
-250
-251
-81
-82
-84
-85
-87
-88
-251
-83
-84
-86
-251
-83
-85
-87
-88
-90
-250
-83
-85
-86
-87
-88
-89
-249
-250
-251
-83
-85
-86
-249
-251
-84
-86
-87
-89
-250
-84
-85
-87
-88
-89
-249
-251
-83
-84
-86
-87
-88
-89
-250
-82
-83
-84
-85
-249
-250
-69
-71
-72
-73
-74
-75
-76
-77
-79
-80
-82
-83
-84
-85
-86
-87
-88
-250
-251
-73
-75
-77
-78
-79
-82
-83
-85
-87
-249
-250
-251
-69
-70
-73
-76
-78
-79
-80
-81
-83
-85
-86
-87
-88
-249
-250
-74
-75
-76
-78
-81
-82
-84
-86
-251
-251
-69
-74
-76
-77
-79
-80
-81
-83
-88
-249
-250
-251
-250
-69
-72
-74
-76
-82
-83
-250
-251
-71
-73
-249
-251
-63
-65
-67
-68
-70
-71
-73
-74
-75
-77
-78
-80
-81
-82
-83
-250
-251
-62
-63
-66
-68
-69
-70
-72
-74
-77
-78
-82
-85
-86
-88
-249
-250
-61
-62
-64
-66
-67
-70
-71
-72
-73
-75
-76
-78
-79
-80
-81
-83
-84
-86
-87
-88
-249
-250
-251
-60
-62
-63
-65
-67
-68
-69
-72
-74
-77
-78
-81
-82
-84
-85
-86
-87
-249
-250
-59
-60
-69
-70
-71
-72
-74
-249
-250
-59
-61
-62
-64
-66
-67
-68
-69
-70
-72
-73
-75
-77
-78
-79
-82
-83
-85
-249
-250
-59
-60
-61
-249
-250
-58
-59
-60
-62
-63
-64
-249
-250
-61
-62
-249
-250
-60
-62
-63
-64
-249
-250
-249
-250
-249
-250
-249
-250
-250
-251
-249
-250
-250
-249
-250
-71
-72
-250
-251
-70
-71
-72
-73
-249
-63
-64
-65
-67
-69
-70
-71
-72
-73
-74
-76
-78
-79
-80
-83
-249
-250
-251
-60
-62
-64
-66
-69
-71
-74
-75
-78
-81
-83
-84
-85
-87
-88
-250
-59
-62
-63
-65
-66
-67
-68
-69
-70
-72
-73
-75
-76
-77
-79
-80
-81
-83
-85
-86
-88
-249
-250
-60
-61
-64
-66
-67
-68
-69
-71
-72
-74
-75
-76
-77
-78
-81
-83
-84
-85
-250
-251
-58
-60
-62
-63
-65
-70
-72
-73
-75
-76
-77
-79
-80
-81
-82
-83
-250
-59
-60
-61
-63
-64
-65
-66
-69
-70
-71
-72
-74
-249
-251
-57
-59
-60
-61
-62
-57
-59
-62
-63
-64
-66
-69
-71
-74
-77
-78
-249
-251
-61
-62
-63
-249
-250
-60
-61
-62
-64
-249
-250
-251
-249
-250
-249
-251
-250
-249
-251
-250
-251
-249
-250
-250
-67
-69
-70
-84
-86
-249
-250
-68
-84
-85
-87
-249
-250
-59
-60
-61
-63
-65
-68
-69
-70
-80
-81
-83
-84
-85
-86
-87
-88
-249
-59
-61
-62
-63
-67
-70
-72
-73
-74
-75
-76
-77
-78
-79
-80
-82
-83
-86
-250
-57
-58
-59
-62
-63
-67
-69
-70
-71
-72
-73
-74
-75
-76
-77
-78
-79
-81
-82
-83
-84
-85
-87
-249
-250
-84
-86
-88
-250
-70
-83
-84
-85
-87
-250
-251
-83
-85
-86
-87
-249
-250
-251
-249
-249
-250
-249
-249
-250
-249
-250
-72
-74
-76
-78
-79
-80
-83
-249
-250
-73
-74
-76
-77
-78
-81
-82
-249
-250
-70
-71
-72
-75
-76
-78
-83
-84
-86
-249
-250
-71
-72
-73
-81
-83
-249
-250
-68
-69
-70
-71
-73
-74
-75
-78
-80
-81
-83
-84
-86
-249
-250
-67
-68
-71
-83
-85
-249
-250
-68
-70
-82
-84
-85
-88
-249
-250
-67
-69
-71
-72
-82
-83
-86
-87
-88
-249
-250
-67
-68
-69
-83
-84
-86
-249
-70
-85
-86
-88
-250
-67
-68
-70
-83
-85
-87
-65
-66
-68
-69
-71
-72
-82
-83
-84
-86
-87
-88
-249
-250
-70
-71
-81
-85
-249
-250
-69
-70
-72
-82
-84
-86
-79
-80
-82
-250
-79
-80
-81
-83
-249
-250
-82
-249
-250
-83
-88
-90
-91
-92
-249
-250
-249
-250
-249
-249
-249
-250
-69
-70
-69
-70
-84
-85
-86
-67
-68
-69
-71
-84
-87
-58
-60
-61
-62
-67
-69
-70
-71
-72
-74
-75
-77
-79
-81
-83
-84
-85
-86
-249
-57
-58
-59
-60
-69
-71
-73
-74
-75
-76
-78
-80
-82
-83
-85
-87
-60
-68
-70
-72
-73
-77
-78
-79
-80
-82
-84
-86
-81
-82
-83
-85
-249
-250
-84
-86
-249
-250
-249
-250
-249
-250
-249
-250
-71
-74
-76
-77
-78
-79
-80
-81
-86
-249
-71
-72
-73
-74
-75
-78
-79
-80
-81
-82
-248
-250
-69
-70
-71
-73
-74
-77
-79
-80
-82
-83
-248
-250
-69
-72
-74
-76
-77
-78
-83
-84
-249
-250
-70
-71
-72
-74
-75
-76
-78
-80
-82
-84
-248
-249
-67
-68
-69
-73
-77
-81
-82
-84
-85
-248
-68
-69
-70
-72
-73
-77
-83
-84
-86
-248
-249
-250
-61
-62
-63
-65
-66
-68
-70
-73
-75
-76
-78
-81
-82
-83
-84
-87
-88
-90
-248
-249
-250
-66
-67
-69
-74
-77
-82
-84
-85
-86
-248
-65
-67
-70
-73
-75
-76
-81
-83
-84
-86
-87
-249
-66
-67
-68
-69
-70
-73
-74
-76
-83
-84
-85
-248
-250
-66
-68
-70
-71
-73
-74
-75
-77
-83
-84
-86
-248
-249
-67
-69
-71
-72
-75
-84
-85
-86
-249
-70
-72
-74
-76
-77
-83
-84
-249
-67
-68
-70
-71
-73
-74
-76
-83
-85
-248
-250
-71
-72
-73
-74
-75
-76
-77
-81
-83
-248
-250
-69
-71
-72
-74
-76
-78
-82
-83
-85
-86
-248
-73
-249
-71
-73
-75
-76
-77
-79
-80
-81
-84
-248
-67
-68
-71
-73
-75
-76
-78
-79
-80
-82
-84
-86
-248
-67
-68
-69
-70
-72
-73
-75
-77
-79
-81
-83
-85
-86
-249
-63
-64
-65
-67
-69
-71
-72
-74
-75
-76
-78
-80
-81
-82
-83
-84
-249
-68
-70
-72
-73
-75
-80
-249
-69
-71
-73
-74
-77
-79
-80
-81
-248
-249
-67
-68
-70
-72
-249
-68
-69
-71
-67
-69
-70
-72
-248
-66
-67
-69
-70
-248
-249
-65
-67
-68
-69
-70
-248
-249
-66
-67
-69
-248
-249
-66
-69
-70
-71
-247
-248
-249
-67
-68
-70
-247
-248
-249
-68
-70
-71
-72
-248
-249
-68
-69
-72
-74
-76
-77
-78
-80
-82
-84
-85
-86
-248
-249
-70
-71
-72
-73
-75
-76
-78
-79
-82
-84
-86
-248
-249
-69
-71
-72
-74
-75
-76
-77
-78
-79
-80
-81
-83
-84
-85
-247
-248
-249
-248
-249
-248
-249
-248
-249
-247
-248
-249
-70
-248
-249
-67
-71
-72
-248
-249
-62
-66
-68
-69
-70
-72
-247
-248
-249
-56
-58
-60
-61
-63
-65
-66
-68
-69
-70
-72
-75
-77
-78
-80
-81
-82
-83
-247
-248
-249
-58
-59
-60
-62
-63
-64
-66
-67
-71
-72
-73
-74
-76
-79
-80
-248
-249
-67
-69
-70
-72
-82
-84
-85
-248
-249
-67
-68
-69
-71
-81
-82
-84
-247
-248
-249
-68
-69
-81
-83
-85
-86
-248
-249
-82
-84
-86
-248
-249
-83
-84
-248
-249
-247
-248
-249
-248
-249
-247
-248
-249
-247
-248
-249
-247
-248
-249
-248
-249
-247
-248
-249
-247
-248
-249
-247
-248
-249
-247
-248
-249
-247
-248
-247
-248
-249
-247
-249
-247
-249
-247
-248
-247
-247
-248
-247
-248
-247
-248
-249
-247
-249
-247
-248
-247
-247
-248
-247
-247
-248
-249
-55
-58
-59
-60
-62
-63
-64
-65
-66
-67
-68
-69
-70
-71
-72
-73
-75
-76
-77
-79
-81
-83
-84
-85
-247
-248
-249
-56
-58
-59
-60
-61
-64
-65
-66
-67
-68
-69
-70
-71
-74
-76
-77
-78
-80
-82
-83
-85
-247
-248
-55
-56
-58
-60
-62
-63
-64
-65
-66
-67
-68
-69
-70
-71
-72
-73
-76
-78
-79
-82
-83
-86
-247
-64
-65
-66
-67
-68
-69
-70
-71
-72
-74
-75
-76
-78
-80
-81
-84
-247
-248
-79
-80
-82
-83
-84
-85
-247
-248
-81
-82
-84
-247
-248
-81
-82
-83
-247
-248
-83
-84
-247
-248
-81
-83
-84
-85
-247
-248
-83
-247
-248
-81
-82
-247
-248
-81
-83
-247
-248
-82
-84
-247
-248
-82
-84
-247
-248
-81
-82
-84
-247
-248
-81
-83
-84
-247
-248
-71
-72
-81
-83
-84
-86
-247
-248
-247
-248
-247
-248
-247
-248
-247
-248
-247
-248
-247
-248
-247
-248
-65
-67
-83
-84
-247
-248
-81
-82
-83
-247
-248
-55
-58
-59
-66
-68
-71
-80
-81
-84
-248
-55
-57
-59
-65
-67
-68
-70
-71
-72
-73
-74
-75
-76
-77
-78
-79
-83
-248
-55
-56
-58
-60
-66
-67
-69
-70
-71
-72
-73
-74
-75
-76
-77
-78
-79
-81
-83
-247
-248
-81
-82
-84
-248
-81
-83
-248
-247
-248
-247
-248
-247
-248
-247
-248
-247
-248
-247
-248
-247
-248
-70
-71
-72
-75
-77
-247
-248
-69
-70
-72
-73
-75
-76
-77
-247
-248
-67
-68
-69
-71
-72
-73
-74
-76
-77
-78
-79
-80
-85
-87
-89
-247
-69
-75
-76
-78
-85
-86
-88
-247
-248
-65
-67
-68
-70
-74
-77
-79
-80
-82
-86
-89
-247
-248
-66
-78
-81
-85
-87
-88
-89
-247
-248
-64
-66
-68
-78
-86
-88
-89
-90
-247
-63
-65
-67
-79
-80
-81
-85
-86
-88
-247
-248
-64
-67
-80
-81
-82
-86
-88
-89
-247
-248
-64
-66
-68
-79
-80
-82
-85
-87
-89
-247
-64
-67
-79
-80
-82
-85
-86
-88
-246
-248
-64
-65
-66
-68
-78
-81
-83
-84
-87
-89
-90
-246
-247
-248
-65
-67
-68
-77
-78
-79
-80
-83
-84
-85
-86
-66
-68
-69
-75
-77
-78
-79
-80
-81
-83
-84
-86
-88
-247
-65
-70
-71
-72
-74
-76
-77
-80
-81
-82
-84
-247
-248
-67
-68
-69
-73
-74
-76
-78
-82
-84
-66
-67
-69
-70
-71
-72
-74
-75
-76
-78
-79
-80
-82
-247
-248
-69
-71
-73
-246
-248
-59
-60
-62
-63
-64
-66
-67
-69
-71
-72
-73
-74
-75
-76
-77
-78
-79
-80
-82
-84
-246
-247
-55
-57
-60
-61
-63
-64
-67
-70
-72
-73
-74
-75
-76
-77
-78
-79
-80
-81
-82
-246
-247
-248
-55
-56
-58
-59
-61
-62
-64
-65
-66
-67
-68
-70
-72
-73
-74
-75
-76
-77
-78
-79
-80
-82
-83
-246
-247
-56
-57
-59
-60
-62
-65
-66
-67
-69
-70
-72
-73
-74
-75
-76
-77
-78
-79
-81
-246
-247
-66
-68
-246
-247
-248
-62
-65
-67
-68
-69
-70
-246
-247
-64
-65
-66
-246
-247
-63
-65
-67
-68
-246
-247
-63
-64
-65
-246
-64
-67
-247
-63
-66
-67
-68
-63
-64
-65
-66
-247
-63
-64
-66
-67
-247
-65
-67
-247
-65
-66
-68
-70
-246
-66
-68
-69
-70
-71
-74
-75
-76
-78
-79
-81
-82
-83
-246
-247
-67
-68
-69
-70
-72
-73
-75
-77
-78
-81
-82
-246
-247
-67
-69
-71
-72
-74
-76
-77
-79
-80
-81
-83
-246
-247
-246
-247
-69
-70
-74
-82
-83
-84
-246
-247
-246
-247
-246
-247
-66
-67
-246
-247
-66
-67
-246
-247
-57
-59
-60
-62
-64
-65
-66
-67
-69
-70
-71
-73
-75
-77
-78
-80
-246
-247
-55
-57
-58
-61
-62
-67
-69
-70
-72
-73
-74
-76
-79
-246
-247
-53
-54
-56
-58
-59
-60
-63
-64
-66
-67
-68
-69
-71
-72
-75
-78
-80
-81
-83
-246
-247
-54
-55
-56
-58
-61
-62
-65
-66
-67
-68
-69
-71
-72
-73
-80
-81
-82
-246
-247
-65
-67
-69
-70
-81
-246
-247
-60
-63
-64
-65
-66
-67
-69
-79
-80
-82
-246
-247
-80
-81
-83
-246
-247
-79
-80
-81
-82
-246
-247
-246
-247
-246
-247
-246
-247
-246
-247
-246
-247
-246
-247
-246
-247
-246
-247
-247
-246
-245
-247
-245
-246
-247
-246
-247
-247
-245
-246
-245
-247
-245
-247
-246
-247
-245
-246
-245
-245
-245
-246
-246
-247
-245
-247
-246
-245
-246
-246
-245
-246
-246
-245
-246
-245
-246
-245
-246
-245
-246
-245
-246
-245
-246
-245
-246
-245
-246
-245
-246
-245
-246
-245
-246
-245
-246
-245
-246
-245
-246
-245
-246
-245
-246
-245
-246
-245
-246
-245
-246
-245
-246
-245
-246
-245
-246
-245
-246
-245
-246
-245
-246
-245
-246
-245
-246
-245
-246
-245
-246
-245
-246
-245
-246
-245
-246
-245
-246
-245
-246
-245
-246
-245
-245
-246
-246
-245
-246
-245
-245
-245
-246
-244
-245
-244
-246
-244
-245
-246
-245
-244
-245
-246
-245
-246
-244
-245
-244
-246
-245
-246
-246
-246
-245
-246
-244
-245
-246
-244
-244
-245
-245
-246
-244
-245
-246
-244
-244
-246
-245
-244
-245
-244
-245
-244
-245
-244
-245
-244
-245
-244
-245
-244
-245
-244
-245
-244
-245
-244
-245
-244
-245
-244
-245
-244
-245
-244
-245
-244
-245
-244
-245
-244
-245
-245
-244
-245
-244
-245
-243
-244
-244
-245
-244
-243
-245
-244
-243
-244
-243
-245
-244
-245
-244
-245
-244
-244
-244
-245
-243
-244
-245
-243
-244
-245
-243
-243
-245
-243
-244
-245
-244
-243
-244
-243
-244
-243
-244
-243
-244
-243
-244
-243
-244
-243
-244
-243
-244
-243
-244
-243
-244
-243
-244
-243
-244
-243
-244
-243
-244
-243
-244
-243
-244
-244
-243
-243
-244
-243
-244
-243
-244
-243
-243
-244
-243
-244
-243
-244
-243
-244
-243
-244
-243
-244
-243
-244
-243
-244
-243
-244
-243
-244
-243
-244
-243
-244
-243
-244
-243
-244
-243
-244
-243
-244
-243
-244
-243
-243
-244
-243
-243
-244
-244
-243
-244
-244
-243
-244
-242
-243
-242
-243
-244
-243
-243
-243
-442
-443
-445
-447
-450
-451
-452
-453
-440
-441
-443
-444
-446
-448
-449
-450
-452
-453
-440
-442
-443
-445
-446
-447
-448
-450
-451
-453
-341
-440
-441
-447
-448
-299
-309
-311
-313
-314
-315
-317
-341
-441
-442
-447
-448
-449
-268
-285
-286
-287
-289
-290
-292
-295
-297
-298
-300
-308
-310
-311
-312
-314
-315
-316
-318
-319
-330
-342
-440
-442
-449
-267
-269
-285
-287
-288
-290
-291
-294
-296
-297
-298
-299
-309
-310
-311
-312
-313
-315
-316
-317
-318
-320
-338
-339
-340
-341
-440
-441
-447
-448
-449
-450
-267
-268
-270
-285
-286
-290
-292
-293
-306
-307
-320
-321
-327
-328
-338
-339
-341
-441
-442
-447
-449
-451
-452
-263
-264
-269
-270
-271
-272
-278
-284
-292
-293
-306
-320
-327
-336
-337
-339
-342
-440
-448
-449
-451
-155
-156
-157
-159
-160
-161
-164
-265
-271
-272
-279
-285
-291
-292
-321
-328
-336
-338
-341
-342
-440
-442
-448
-109
-110
-114
-115
-116
-118
-119
-120
-121
-122
-123
-124
-125
-126
-127
-128
-129
-151
-152
-154
-157
-158
-159
-160
-162
-163
-164
-263
-264
-271
-278
-286
-292
-307
-321
-327
-328
-334
-337
-441
-446
-101
-102
-104
-106
-107
-109
-111
-112
-113
-114
-116
-118
-119
-121
-122
-123
-124
-125
-128
-129
-167
-168
-263
-265
-271
-272
-277
-278
-279
-285
-291
-292
-305
-306
-307
-320
-321
-327
-328
-334
-335
-342
-443
-444
-445
-446
-103
-104
-105
-107
-108
-109
-113
-115
-116
-127
-128
-129
-149
-166
-168
-169
-170
-263
-264
-265
-271
-279
-285
-286
-291
-293
-306
-320
-321
-322
-335
-342
-102
-113
-114
-127
-128
-129
-150
-263
-264
-271
-272
-277
-279
-284
-286
-291
-292
-293
-307
-331
-341
-393
-395
-128
-129
-147
-148
-171
-172
-263
-264
-271
-278
-279
-286
-288
-290
-292
-313
-314
-315
-316
-318
-319
-329
-330
-331
-332
-333
-342
-392
-393
-394
-396
-102
-113
-114
-127
-128
-129
-147
-265
-267
-272
-274
-276
-277
-287
-288
-290
-291
-308
-309
-310
-311
-312
-314
-318
-319
-331
-392
-394
-395
-101
-102
-113
-114
-127
-128
-129
-147
-175
-267
-272
-273
-275
-289
-309
-389
-390
-392
-395
-396
-101
-113
-127
-128
-129
-144
-174
-175
-176
-275
-390
-395
-396
-102
-114
-128
-129
-178
-179
-387
-388
-389
-395
-399
-400
-101
-102
-113
-114
-128
-129
-143
-179
-231
-232
-234
-386
-388
-395
-400
-101
-102
-113
-114
-127
-142
-143
-183
-233
-385
-387
-396
-399
-101
-102
-113
-114
-127
-129
-142
-180
-181
-182
-183
-184
-373
-375
-376
-378
-383
-384
-395
-396
-397
-101
-102
-128
-129
-141
-143
-183
-228
-229
-233
-373
-375
-376
-378
-381
-382
-383
-395
-397
-398
-101
-102
-127
-128
-142
-185
-186
-234
-374
-376
-377
-379
-380
-395
-101
-102
-127
-128
-142
-143
-186
-223
-224
-225
-226
-232
-237
-238
-371
-373
-396
-101
-102
-127
-128
-143
-187
-188
-223
-225
-233
-234
-371
-393
-395
-101
-102
-142
-143
-187
-222
-233
-235
-370
-394
-396
-141
-143
-190
-191
-211
-212
-213
-214
-215
-216
-217
-219
-220
-221
-232
-234
-369
-370
-393
-394
-395
-396
-398
-399
-400
-189
-191
-210
-212
-215
-218
-219
-233
-369
-370
-389
-390
-391
-394
-396
-397
-398
-114
-118
-119
-120
-122
-144
-145
-208
-210
-232
-233
-234
-369
-370
-389
-391
-395
-396
-397
-399
-400
-440
-441
-442
-443
-444
-445
-447
-448
-451
-453
-108
-109
-111
-113
-115
-116
-117
-119
-120
-122
-192
-193
-208
-209
-233
-369
-370
-387
-388
-395
-397
-398
-400
-442
-443
-445
-447
-448
-450
-452
-453
-126
-147
-208
-230
-232
-369
-370
-387
-395
-397
-398
-399
-400
-440
-441
-442
-103
-104
-126
-147
-194
-195
-207
-231
-233
-314
-315
-317
-320
-323
-325
-327
-328
-329
-331
-333
-335
-337
-338
-342
-369
-370
-387
-396
-397
-398
-399
-440
-104
-125
-196
-206
-228
-235
-236
-238
-285
-287
-288
-289
-290
-291
-292
-293
-294
-295
-296
-297
-298
-299
-300
-301
-302
-303
-304
-305
-306
-307
-308
-309
-310
-311
-312
-317
-318
-320
-321
-323
-324
-326
-330
-331
-332
-333
-335
-336
-339
-341
-342
-369
-370
-386
-395
-396
-441
-442
-103
-128
-150
-198
-206
-207
-208
-227
-229
-234
-237
-263
-264
-265
-266
-267
-268
-269
-270
-271
-272
-273
-274
-275
-276
-277
-278
-279
-280
-281
-283
-284
-286
-288
-289
-290
-291
-292
-293
-294
-295
-296
-297
-298
-299
-300
-301
-302
-303
-304
-305
-306
-307
-308
-309
-310
-311
-314
-316
-318
-319
-320
-322
-324
-326
-327
-328
-329
-331
-332
-333
-340
-342
-369
-370
-385
-395
-396
-440
-101
-128
-197
-207
-227
-233
-236
-237
-238
-263
-264
-265
-267
-269
-270
-273
-274
-275
-276
-278
-279
-280
-281
-282
-283
-284
-285
-286
-287
-288
-289
-290
-291
-292
-293
-294
-295
-296
-297
-299
-300
-301
-310
-341
-342
-369
-371
-383
-440
-441
-102
-127
-128
-151
-152
-155
-197
-198
-207
-225
-227
-233
-235
-236
-238
-263
-265
-266
-267
-268
-269
-271
-272
-275
-277
-341
-342
-370
-371
-384
-441
-102
-128
-153
-154
-155
-197
-225
-263
-264
-341
-342
-372
-375
-376
-379
-380
-381
-383
-384
-440
-442
-102
-127
-151
-152
-154
-155
-206
-207
-223
-224
-233
-263
-264
-341
-342
-373
-374
-376
-377
-379
-382
-383
-384
-440
-441
-127
-128
-151
-152
-153
-155
-206
-207
-223
-232
-263
-341
-342
-373
-374
-375
-378
-381
-384
-395
-441
-442
-101
-102
-127
-128
-207
-223
-232
-233
-263
-264
-341
-342
-378
-380
-384
-385
-387
-395
-440
-125
-126
-149
-150
-194
-209
-221
-222
-233
-263
-341
-342
-379
-387
-440
-103
-104
-124
-193
-209
-220
-232
-263
-264
-341
-342
-377
-389
-441
-103
-123
-146
-147
-148
-192
-213
-215
-216
-217
-218
-220
-232
-233
-263
-264
-341
-342
-375
-376
-377
-390
-391
-441
-442
-107
-123
-147
-190
-213
-215
-216
-219
-220
-233
-263
-264
-341
-342
-376
-392
-395
-440
-105
-106
-189
-190
-217
-223
-224
-233
-263
-264
-341
-342
-373
-374
-375
-392
-393
-395
-441
-145
-188
-215
-216
-217
-223
-225
-226
-263
-264
-341
-342
-393
-394
-395
-440
-441
-442
-187
-216
-233
-263
-264
-341
-342
-372
-440
-123
-142
-187
-214
-228
-263
-264
-341
-342
-370
-371
-372
-440
-442
-105
-106
-109
-110
-112
-113
-114
-115
-116
-117
-118
-121
-123
-142
-213
-233
-263
-264
-341
-342
-371
-441
-106
-107
-108
-111
-112
-113
-115
-118
-119
-184
-185
-230
-232
-263
-264
-341
-342
-441
-442
-443
-444
-446
-447
-448
-450
-452
-453
-104
-125
-141
-143
-182
-184
-211
-212
-230
-231
-232
-264
-341
-441
-443
-444
-446
-447
-448
-449
-450
-452
-453
-104
-141
-142
-143
-179
-180
-263
-264
-342
-440
-442
-127
-128
-143
-182
-208
-209
-210
-263
-264
-323
-324
-325
-327
-336
-338
-339
-341
-100
-128
-141
-142
-177
-179
-208
-264
-300
-301
-302
-303
-304
-305
-306
-307
-310
-311
-313
-315
-316
-317
-319
-320
-322
-323
-325
-326
-327
-328
-329
-330
-331
-332
-333
-334
-335
-336
-338
-339
-340
-342
-101
-102
-127
-142
-177
-178
-263
-264
-266
-267
-269
-271
-272
-273
-274
-276
-278
-280
-281
-282
-283
-284
-285
-286
-287
-288
-289
-290
-291
-292
-293
-294
-295
-296
-297
-299
-301
-304
-306
-309
-310
-313
-315
-317
-318
-319
-320
-322
-325
-326
-328
-329
-330
-331
-332
-333
-334
-335
-340
-100
-102
-116
-128
-141
-173
-175
-176
-263
-264
-266
-269
-272
-273
-275
-278
-279
-280
-281
-282
-283
-284
-285
-286
-287
-288
-289
-290
-291
-292
-293
-294
-295
-297
-298
-299
-301
-302
-303
-305
-307
-308
-311
-312
-100
-101
-115
-116
-127
-128
-174
-175
-176
-263
-264
-265
-266
-268
-269
-270
-271
-273
-275
-276
-277
-101
-115
-128
-144
-171
-172
-173
-100
-101
-116
-127
-128
-170
-172
-101
-125
-126
-171
-115
-124
-126
-166
-168
-170
-103
-104
-115
-149
-150
-165
-167
-169
-107
-115
-119
-121
-123
-165
-106
-116
-117
-118
-119
-152
-161
-163
-164
-105
-151
-152
-154
-155
-157
-159
-160
-162
-164
